TITLE	
DATA TYPE	
ORIGIN	JASCO
OWNER	
DATE	16/04/13
TIME	14:11:56
SPECTROMETER/DATA SYSTEM	
LOCALE	2057
RESOLUTION	
DELTAX	-0.2
XUNITS	NANOMETERS
YUNITS	CD [mdeg]
Y2UNITS	HT [V]
FIRSTX	  260.0000
LASTX	  190.0000
NPOINTS	     351
FIRSTY	    -0.32900
MAXY	    25.76954
MINY	   -17.78594
XYDATA
260.0000	-0.329	262.621
259.8000	-0.356911	262.71
259.6000	-0.397693	262.798
259.4000	-0.450445	262.883
259.2000	-0.452908	262.962
259.0000	-0.494716	263.045
258.8000	-0.4902	263.126
258.6000	-0.474226	263.203
258.4000	-0.499197	263.277
258.2000	-0.517386	263.344
258.0000	-0.543443	263.419
257.8000	-0.548075	263.5
257.6000	-0.552542	263.579
257.4000	-0.530403	263.663
257.2000	-0.514529	263.736
257.0000	-0.567164	263.811
256.8000	-0.573065	263.891
256.6000	-0.577641	263.968
256.4000	-0.602097	264.048
256.2000	-0.579134	264.112
256.0000	-0.636798	264.179
255.8000	-0.635246	264.25
255.6000	-0.649972	264.323
255.4000	-0.694304	264.413
255.2000	-0.644112	264.491
255.0000	-0.66755	264.562
254.8000	-0.646419	264.636
254.6000	-0.604335	264.704
254.4000	-0.673293	264.785
254.2000	-0.686705	264.87
254.0000	-0.708766	264.947
253.8000	-0.740077	265.021
253.6000	-0.754104	265.079
253.4000	-0.736735	265.144
253.2000	-0.732434	265.213
253.0000	-0.706811	265.282
252.8000	-0.695843	265.358
252.6000	-0.737246	265.428
252.4000	-0.814037	265.503
252.2000	-0.855715	265.591
252.0000	-0.895167	265.675
251.8000	-0.953015	265.762
251.6000	-0.945072	265.843
251.4000	-0.951718	265.919
251.2000	-0.958923	265.999
251.0000	-0.913881	266.081
250.8000	-0.906886	266.177
250.6000	-0.944346	266.271
250.4000	-0.97516	266.353
250.2000	-0.96008	266.446
250.0000	-0.957956	266.526
249.8000	-0.938202	266.613
249.6000	-0.980943	266.704
249.4000	-1.03698	266.786
249.2000	-1.06692	266.87
249.0000	-1.12168	266.946
248.8000	-1.09684	267.024
248.6000	-1.08227	267.109
248.4000	-1.14606	267.189
248.2000	-1.17843	267.273
248.0000	-1.26435	267.351
247.8000	-1.35718	267.427
247.6000	-1.40697	267.521
247.4000	-1.4297	267.621
247.2000	-1.43987	267.735
247.0000	-1.4323	267.856
246.8000	-1.38517	267.977
246.6000	-1.35062	268.104
246.4000	-1.3959	268.226
246.2000	-1.39375	268.355
246.0000	-1.43948	268.485
245.8000	-1.45937	268.603
245.6000	-1.47652	268.724
245.4000	-1.50416	268.839
245.2000	-1.52994	268.952
245.0000	-1.60701	269.07
244.8000	-1.62032	269.184
244.6000	-1.63071	269.311
244.4000	-1.65237	269.438
244.2000	-1.70903	269.564
244.0000	-1.69852	269.702
243.8000	-1.73847	269.828
243.6000	-1.81476	269.957
243.4000	-1.84944	270.089
243.2000	-1.93213	270.22
243.0000	-2.04463	270.364
242.8000	-2.13822	270.516
242.6000	-2.17389	270.668
242.4000	-2.20083	270.823
242.2000	-2.25042	270.977
242.0000	-2.23175	271.133
241.8000	-2.34751	271.296
241.6000	-2.42707	271.472
241.4000	-2.48078	271.651
241.2000	-2.58076	271.829
241.0000	-2.58151	272.007
240.8000	-2.63537	272.179
240.6000	-2.639	272.358
240.4000	-2.69631	272.546
240.2000	-2.7232	272.739
240.0000	-2.74831	272.934
239.8000	-2.90496	273.134
239.6000	-2.99996	273.342
239.4000	-3.09173	273.561
239.2000	-3.21029	273.784
239.0000	-3.24403	274.008
238.8000	-3.29159	274.237
238.6000	-3.36269	274.463
238.4000	-3.41378	274.695
238.2000	-3.50015	274.942
238.0000	-3.55364	275.187
237.8000	-3.62779	275.438
237.6000	-3.70002	275.692
237.4000	-3.74742	275.943
237.2000	-3.82247	276.202
237.0000	-3.88221	276.463
236.8000	-3.98343	276.739
236.6000	-4.05922	277.018
236.4000	-4.16667	277.294
236.2000	-4.23138	277.577
236.0000	-4.29136	277.861
235.8000	-4.41031	278.148
235.6000	-4.56382	278.449
235.4000	-4.6444	278.754
235.2000	-4.75768	279.065
235.0000	-4.79244	279.384
234.8000	-4.80568	279.709
234.6000	-4.88733	280.047
234.4000	-5.0158	280.386
234.2000	-5.05323	280.734
234.0000	-5.17325	281.091
233.8000	-5.27093	281.449
233.6000	-5.37886	281.826
233.4000	-5.56549	282.208
233.2000	-5.66695	282.599
233.0000	-5.77616	283.004
232.8000	-5.8618	283.405
232.6000	-5.86704	283.824
232.4000	-5.98134	284.251
232.2000	-6.06171	284.684
232.0000	-6.10746	285.138
231.8000	-6.25009	285.593
231.6000	-6.36655	286.059
231.4000	-6.44103	286.543
231.2000	-6.58233	287.037
231.0000	-6.67141	287.551
230.8000	-6.73827	288.07
230.6000	-6.95422	288.584
230.4000	-7.08668	289.11
230.2000	-7.21248	289.638
230.0000	-7.34268	290.201
229.8000	-7.43103	290.792
229.6000	-7.43483	291.42
229.4000	-7.44048	292.085
229.2000	-7.42377	292.766
229.0000	-7.47927	293.477
228.8000	-7.62564	294.211
228.6000	-7.77621	294.958
228.4000	-7.93914	295.722
228.2000	-8.00733	296.481
228.0000	-8.09708	297.236
227.8000	-8.17195	297.995
227.6000	-8.26885	298.747
227.4000	-8.38256	299.505
227.2000	-8.4543	300.265
227.0000	-8.54286	301.026
226.8000	-8.61436	301.802
226.6000	-8.59145	302.583
226.4000	-8.67789	303.375
226.2000	-8.77894	304.167
226.0000	-8.82546	304.957
225.8000	-8.98194	305.742
225.6000	-9.06479	306.52
225.4000	-9.14025	307.292
225.2000	-9.25003	308.056
225.0000	-9.31299	308.815
224.8000	-9.51277	309.569
224.6000	-9.55428	310.316
224.4000	-9.63458	311.054
224.2000	-9.82579	311.778
224.0000	-9.84701	312.492
223.8000	-10.0087	313.202
223.6000	-10.1004	313.902
223.4000	-10.2054	314.593
223.2000	-10.2735	315.278
223.0000	-10.2725	315.944
222.8000	-10.4157	316.602
222.6000	-10.4047	317.248
222.4000	-10.3716	317.879
222.2000	-10.5101	318.499
222.0000	-10.5597	319.096
221.8000	-10.6037	319.693
221.6000	-10.69	320.273
221.4000	-10.639	320.837
221.2000	-10.7356	321.39
221.0000	-10.6946	321.927
220.8000	-10.7012	322.458
220.6000	-10.7926	322.975
220.4000	-10.8714	323.472
220.2000	-11.0589	323.957
220.0000	-11.1075	324.429
219.8000	-11.0772	324.893
219.6000	-11.0089	325.351
219.4000	-10.9794	325.787
219.2000	-11.1095	326.209
219.0000	-11.2613	326.62
218.8000	-11.3212	327.025
218.6000	-11.2227	327.429
218.4000	-11.1443	327.81
218.2000	-11.1498	328.174
218.0000	-11.2337	328.53
217.8000	-11.2815	328.879
217.6000	-11.2363	329.228
217.4000	-11.1908	329.572
217.2000	-11.2196	329.905
217.0000	-11.2842	330.233
216.8000	-11.3917	330.567
216.6000	-11.4083	330.904
216.4000	-11.3531	331.235
216.2000	-11.4483	331.555
216.0000	-11.4759	331.865
215.8000	-11.543	332.172
215.6000	-11.6226	332.493
215.4000	-11.5871	332.818
215.2000	-11.6367	333.139
215.0000	-11.6873	333.463
214.8000	-11.6836	333.781
214.6000	-11.7768	334.105
214.4000	-11.762	334.447
214.2000	-11.674	334.802
214.0000	-11.7978	335.155
213.8000	-11.7601	335.52
213.6000	-11.7176	335.886
213.4000	-11.7704	336.258
213.2000	-11.7881	336.647
213.0000	-11.9202	337.047
212.8000	-11.9949	337.472
212.6000	-12.0894	337.91
212.4000	-12.1953	338.359
212.2000	-12.1761	338.826
212.0000	-12.2571	339.307
211.8000	-12.3196	339.802
211.6000	-12.3628	340.316
211.4000	-12.494	340.839
211.2000	-12.8309	341.367
211.0000	-13.0633	341.922
210.8000	-13.292	342.491
210.6000	-13.5491	343.085
210.4000	-13.588	343.706
210.2000	-13.6327	344.341
210.0000	-13.79	344.996
209.8000	-14.0271	345.668
209.6000	-14.2731	346.364
209.4000	-14.4933	347.085
209.2000	-14.6944	347.823
209.0000	-14.8811	348.586
208.8000	-14.9873	349.367
208.6000	-15.3194	350.165
208.4000	-15.5523	350.992
208.2000	-15.8043	351.834
208.0000	-16.0713	352.701
207.8000	-16.2317	353.591
207.6000	-16.3352	354.505
207.4000	-16.4594	355.444
207.2000	-16.7021	356.396
207.0000	-16.793	357.371
206.8000	-17.0612	358.363
206.6000	-17.1629	359.388
206.4000	-17.2633	360.441
206.2000	-17.3598	361.511
206.0000	-17.3161	362.603
205.8000	-17.5079	363.697
205.6000	-17.5255	364.818
205.4000	-17.7859	365.966
205.2000	-17.7753	367.144
205.0000	-17.6936	368.353
204.8000	-17.6341	369.581
204.6000	-17.5166	370.827
204.4000	-17.5186	372.106
204.2000	-17.6009	373.398
204.0000	-17.5094	374.718
203.8000	-17.2496	376.069
203.6000	-17.0148	377.428
203.4000	-16.7501	378.824
203.2000	-16.5395	380.248
203.0000	-16.5726	381.697
202.8000	-16.4725	383.192
202.6000	-16.3712	384.713
202.4000	-16.1048	386.267
202.2000	-15.7147	387.845
202.0000	-15.1305	389.44
201.8000	-14.5277	391.064
201.6000	-14.0375	392.712
201.4000	-13.5227	394.397
201.2000	-13.1711	396.11
201.0000	-12.8702	397.835
200.8000	-12.5206	399.587
200.6000	-12.1198	401.36
200.4000	-11.6461	403.155
200.2000	-11.0931	404.981
200.0000	-10.3178	406.824
199.8000	-9.64112	408.685
199.6000	-8.80988	410.568
199.4000	-7.97262	412.479
199.2000	-7.3134	414.423
199.0000	-6.60594	416.384
198.8000	-6.09678	418.373
198.6000	-5.28429	420.392
198.4000	-4.18287	422.443
198.2000	-3.12598	424.531
198.0000	-2.0143	426.648
197.8000	-1.02075	428.804
197.6000	-0.034415	431.003
197.4000	0.810327	433.247
197.2000	1.90725	435.55
197.0000	3.20442	437.891
196.8000	3.89223	440.239
196.6000	4.88122	442.613
196.4000	5.682	445.007
196.2000	6.60149	447.448
196.0000	7.42549	449.929
195.8000	8.45343	452.445
195.6000	9.59931	454.998
195.4000	10.6212	457.566
195.2000	11.5013	460.161
195.0000	12.4436	462.812
194.8000	13.1757	465.528
194.6000	13.8986	468.354
194.4000	14.9403	471.294
194.2000	15.7357	474.339
194.0000	16.3429	477.475
193.8000	17.0748	480.676
193.6000	17.7495	483.938
193.4000	18.7074	487.247
193.2000	19.4647	490.599
193.0000	20.2565	494.015
192.8000	21.1462	497.491
192.6000	21.3578	501.025
192.4000	21.4399	504.613
192.2000	21.8462	508.262
192.0000	21.7273	511.956
191.8000	21.6837	515.725
191.6000	22.7874	519.63
191.4000	23.6247	523.614
191.2000	24.2039	527.687
191.0000	25.3116	531.851
190.8000	25.7695	536.069
190.6000	25.4228	540.352
190.4000	25.0532	544.725
190.2000	24.9262	549.213
190.0000	24.461	553.831

##### Extended Information
[Comments]
Sample name
Comment
User
Division
Company	N.I.M.R

[Detailed Information]
Creation date	13/04/2016 14:11

Data array type	Linear data array * 2
Horizontal axis	Wavelength [nm]
Vertical axis(1)	CD [mdeg]
Vertical axis(2)	HT [V]
Start	260 nm
End	190 nm
Data interval	0.2 nm
Data points	351     

[Measurement Information]
Instrument Name	Jasco J815
Model Name	J-815
Serial No.	B059861168

Accessory	CDF-426S
Accessory S/N	C016161183
  Temperature	20.00 C
  Control Sonsor	Holder
  Monitor Sensor	Holder
  Start Mode	Start immediately
  Cell Length	10 mm

Measurement date	13/04/2016 14:11

Photometric Mode	CD, HT
Measure Range	260 - 190 nm
Data pitch	0.2 nm
Sensitivity	Standard
D.I.T.	0.25 sec
Bandwidth	2.00 nm
Start Mode	Immediately
Scanning Speed	200 nm/min
Baseline Correction	None
Shutter Control	Auto
CD Detector	PMT
PMT Voltage	Auto
Accumulations	25

