TITLE	
DATA TYPE	
ORIGIN	JASCO
OWNER	
DATE	16/04/15
TIME	13:02:12
SPECTROMETER/DATA SYSTEM	
LOCALE	2057
RESOLUTION	
DELTAX	-0.2
XUNITS	NANOMETERS
YUNITS	CD [mdeg]
Y2UNITS	HT [V]
FIRSTX	  260.0000
LASTX	  195.0000
NPOINTS	     326
FIRSTY	    -0.50061
MAXY	    -0.20800
MINY	    -9.00402
XYDATA
260.0000	-0.500613	240.861
259.8000	-0.52139	240.985
259.6000	-0.501224	241.116
259.4000	-0.525613	241.249
259.2000	-0.502483	241.381
259.0000	-0.552	241.512
258.8000	-0.577267	241.631
258.6000	-0.601565	241.75
258.4000	-0.635198	241.866
258.2000	-0.616663	241.988
258.0000	-0.57225	242.121
257.8000	-0.567777	242.248
257.6000	-0.534283	242.374
257.4000	-0.507957	242.496
257.2000	-0.571357	242.611
257.0000	-0.5894	242.735
256.8000	-0.583184	242.858
256.6000	-0.589494	242.988
256.4000	-0.562543	243.122
256.2000	-0.493374	243.251
256.0000	-0.481213	243.391
255.8000	-0.452294	243.513
255.6000	-0.424854	243.633
255.4000	-0.416364	243.755
255.2000	-0.470634	243.871
255.0000	-0.498293	244.003
254.8000	-0.494617	244.139
254.6000	-0.503042	244.279
254.4000	-0.470959	244.413
254.2000	-0.465249	244.536
254.0000	-0.492665	244.66
253.8000	-0.504417	244.776
253.6000	-0.469453	244.905
253.4000	-0.4814	245.036
253.2000	-0.488481	245.167
253.0000	-0.505544	245.301
252.8000	-0.510906	245.423
252.6000	-0.461405	245.553
252.4000	-0.439156	245.685
252.2000	-0.428384	245.823
252.0000	-0.461296	245.966
251.8000	-0.54333	246.098
251.6000	-0.538664	246.236
251.4000	-0.598177	246.364
251.2000	-0.597128	246.49
251.0000	-0.512041	246.627
250.8000	-0.472038	246.763
250.6000	-0.440957	246.908
250.4000	-0.417338	247.046
250.2000	-0.447875	247.182
250.0000	-0.488471	247.313
249.8000	-0.491245	247.441
249.6000	-0.447969	247.583
249.4000	-0.437791	247.718
249.2000	-0.429555	247.855
249.0000	-0.3932	247.996
248.8000	-0.445831	248.123
248.6000	-0.454299	248.258
248.4000	-0.453748	248.383
248.2000	-0.503723	248.503
248.0000	-0.484821	248.634
247.8000	-0.510811	248.761
247.6000	-0.539426	248.905
247.4000	-0.524302	249.051
247.2000	-0.561446	249.197
247.0000	-0.562808	249.353
246.8000	-0.539921	249.51
246.6000	-0.581648	249.67
246.4000	-0.560321	249.829
246.2000	-0.512634	249.991
246.0000	-0.549068	250.148
245.8000	-0.469918	250.304
245.6000	-0.433922	250.464
245.4000	-0.530167	250.607
245.2000	-0.535395	250.757
245.0000	-0.557046	250.907
244.8000	-0.577038	251.051
244.6000	-0.540898	251.213
244.4000	-0.493018	251.366
244.2000	-0.543227	251.522
244.0000	-0.503063	251.691
243.8000	-0.457925	251.85
243.6000	-0.522006	252.016
243.4000	-0.504235	252.174
243.2000	-0.492668	252.334
243.0000	-0.492877	252.499
242.8000	-0.457021	252.672
242.6000	-0.479601	252.851
242.4000	-0.569035	253.021
242.2000	-0.599842	253.2
242.0000	-0.627345	253.374
241.8000	-0.643888	253.548
241.6000	-0.577831	253.742
241.4000	-0.588484	253.928
241.2000	-0.595789	254.123
241.0000	-0.604259	254.32
240.8000	-0.625497	254.512
240.6000	-0.655718	254.714
240.4000	-0.685619	254.909
240.2000	-0.622845	255.112
240.0000	-0.649191	255.317
239.8000	-0.623602	255.522
239.6000	-0.648595	255.741
239.4000	-0.701772	255.96
239.2000	-0.693279	256.182
239.0000	-0.737271	256.405
238.8000	-0.675234	256.634
238.6000	-0.672449	256.871
238.4000	-0.688002	257.106
238.2000	-0.628019	257.357
238.0000	-0.649004	257.602
237.8000	-0.652501	257.847
237.6000	-0.602533	258.105
237.4000	-0.570277	258.359
237.2000	-0.546302	258.625
237.0000	-0.520779	258.889
236.8000	-0.561739	259.159
236.6000	-0.661668	259.436
236.4000	-0.693138	259.709
236.2000	-0.717912	259.993
236.0000	-0.779543	260.283
235.8000	-0.69911	260.579
235.6000	-0.719678	260.881
235.4000	-0.718717	261.176
235.2000	-0.631856	261.478
235.0000	-0.712203	261.774
234.8000	-0.683488	262.085
234.6000	-0.691587	262.41
234.4000	-0.756305	262.733
234.2000	-0.668776	263.073
234.0000	-0.673377	263.408
233.8000	-0.663632	263.747
233.6000	-0.591506	264.107
233.4000	-0.629259	264.465
233.2000	-0.612717	264.834
233.0000	-0.620408	265.206
232.8000	-0.650904	265.579
232.6000	-0.58364	265.966
232.4000	-0.552032	266.357
232.2000	-0.492463	266.761
232.0000	-0.469342	267.162
231.8000	-0.501316	267.558
231.6000	-0.487976	267.964
231.4000	-0.422362	268.374
231.2000	-0.416221	268.796
231.0000	-0.351531	269.222
230.8000	-0.369271	269.64
230.6000	-0.433982	270.058
230.4000	-0.445019	270.474
230.2000	-0.420831	270.913
230.0000	-0.406058	271.365
229.8000	-0.382832	271.83
229.6000	-0.40224	272.311
229.4000	-0.421692	272.8
229.2000	-0.379562	273.317
229.0000	-0.290085	273.849
228.8000	-0.25897	274.395
228.6000	-0.208005	274.947
228.4000	-0.244374	275.493
228.2000	-0.301363	276.038
228.0000	-0.323427	276.58
227.8000	-0.320248	277.121
227.6000	-0.366339	277.656
227.4000	-0.370549	278.179
227.2000	-0.391657	278.703
227.0000	-0.436634	279.21
226.8000	-0.409723	279.723
226.6000	-0.360701	280.235
226.4000	-0.32194	280.74
226.2000	-0.328359	281.256
226.0000	-0.296996	281.766
225.8000	-0.467544	282.267
225.6000	-0.52057	282.775
225.4000	-0.558521	283.273
225.2000	-0.659805	283.768
225.0000	-0.596608	284.26
224.8000	-0.575759	284.743
224.6000	-0.589163	285.223
224.4000	-0.523424	285.696
224.2000	-0.512016	286.174
224.0000	-0.53475	286.643
223.8000	-0.595297	287.117
223.6000	-0.611568	287.588
223.4000	-0.713551	288.049
223.2000	-0.710142	288.52
223.0000	-0.783666	288.983
222.8000	-0.857829	289.453
222.6000	-0.873644	289.921
222.4000	-0.98781	290.376
222.2000	-1.05424	290.833
222.0000	-1.12602	291.274
221.8000	-1.19189	291.722
221.6000	-1.2289	292.165
221.4000	-1.32447	292.607
221.2000	-1.36881	293.056
221.0000	-1.3684	293.494
220.8000	-1.40481	293.937
220.6000	-1.32332	294.385
220.4000	-1.34139	294.828
220.2000	-1.4614	295.276
220.0000	-1.54185	295.714
219.8000	-1.71118	296.152
219.6000	-1.89791	296.584
219.4000	-1.98759	297.012
219.2000	-2.08527	297.454
219.0000	-2.19697	297.886
218.8000	-2.15675	298.334
218.6000	-2.17724	298.774
218.4000	-2.2597	299.208
218.2000	-2.2198	299.649
218.0000	-2.33335	300.064
217.8000	-2.53237	300.484
217.6000	-2.63762	300.901
217.4000	-2.81982	301.32
217.2000	-2.93636	301.749
217.0000	-3.005	302.175
216.8000	-3.0864	302.608
216.6000	-3.1832	303.036
216.4000	-3.15623	303.476
216.2000	-3.25209	303.919
216.0000	-3.29419	304.355
215.8000	-3.40836	304.798
215.6000	-3.66199	305.238
215.4000	-3.73777	305.679
215.2000	-3.86328	306.126
215.0000	-3.94425	306.56
214.8000	-3.85453	307.001
214.6000	-3.95611	307.435
214.4000	-4.02209	307.879
214.2000	-4.08327	308.341
214.0000	-4.2319	308.802
213.8000	-4.36816	309.276
213.6000	-4.55907	309.746
213.4000	-4.65035	310.22
213.2000	-4.73193	310.702
213.0000	-4.7617	311.182
212.8000	-4.75972	311.68
212.6000	-4.90633	312.171
212.4000	-4.93059	312.676
212.2000	-5.1263	313.184
212.0000	-5.16908	313.694
211.8000	-5.18264	314.223
211.6000	-5.26806	314.748
211.4000	-5.31044	315.275
211.2000	-5.46905	315.809
211.0000	-5.56531	316.341
210.8000	-5.65315	316.887
210.6000	-5.79123	317.435
210.4000	-5.80586	317.996
210.2000	-5.89066	318.565
210.0000	-6.001	319.126
209.8000	-6.09628	319.703
209.6000	-6.13927	320.275
209.4000	-6.29183	320.848
209.2000	-6.38706	321.442
209.0000	-6.29807	322.04
208.8000	-6.47801	322.646
208.6000	-6.60898	323.258
208.4000	-6.598	323.882
208.2000	-6.76792	324.513
208.0000	-6.87612	325.145
207.8000	-6.95566	325.789
207.6000	-7.13717	326.429
207.4000	-7.23752	327.079
207.2000	-7.25638	327.753
207.0000	-7.35482	328.43
206.8000	-7.23032	329.128
206.6000	-7.22379	329.82
206.4000	-7.32301	330.517
206.2000	-7.35729	331.231
206.0000	-7.56299	331.95
205.8000	-7.72156	332.694
205.6000	-7.87623	333.439
205.4000	-7.97005	334.191
205.2000	-7.97285	334.955
205.0000	-7.9115	335.722
204.8000	-7.85926	336.513
204.6000	-7.85199	337.313
204.4000	-7.95703	338.127
204.2000	-8.17133	338.954
204.0000	-8.06731	339.788
203.8000	-7.9722	340.641
203.6000	-8.01069	341.495
203.4000	-8.08788	342.362
203.2000	-8.21791	343.246
203.0000	-8.50443	344.136
202.8000	-8.47744	345.062
202.6000	-8.40031	346.002
202.4000	-8.46217	346.956
202.2000	-8.39939	347.927
202.0000	-8.35648	348.901
201.8000	-8.38848	349.895
201.6000	-8.42985	350.9
201.4000	-8.52349	351.923
201.2000	-8.81411	352.96
201.0000	-9.00402	354.007
200.8000	-8.92371	355.083
200.6000	-8.85098	356.166
200.4000	-8.87827	357.262
200.2000	-8.78218	358.375
200.0000	-8.68607	359.498
199.8000	-8.52074	360.646
199.6000	-8.39142	361.795
199.4000	-8.34415	362.962
199.2000	-8.45168	364.142
199.0000	-8.56233	365.332
198.8000	-8.578	366.555
198.6000	-8.39515	367.799
198.4000	-8.34185	369.059
198.2000	-8.17323	370.34
198.0000	-8.06945	371.635
197.8000	-7.92061	372.958
197.6000	-7.78653	374.296
197.4000	-7.76243	375.675
197.2000	-7.84932	377.077
197.0000	-7.766	378.511
196.8000	-7.71743	379.978
196.6000	-7.49511	381.458
196.4000	-7.14128	382.973
196.2000	-6.84838	384.505
196.0000	-6.59447	386.06
195.8000	-6.37388	387.641
195.6000	-6.2419	389.24
195.4000	-6.14185	390.867
195.2000	-6.15015	392.514
195.0000	-6.12698	394.203

##### Extended Information
[Comments]
Sample name	
Comment	
User	pc
Division
Company	N.I.M.R

[Detailed Information]
Creation date	15/04/2016 13:02

Data array type	Linear data array * 2
Horizontal axis	Wavelength [nm]
Vertical axis(1)	CD [mdeg]
Vertical axis(2)	HT [V]
Start	260 nm
End	195 nm
Data interval	0.2 nm
Data points	326     

[Measurement Information]
Model Name	J-815
Serial No.	B059861168

Sensitivity	Standard
D.I.T.	0.25 sec
Bandwidth	
Start Mode	Immediately
Scanning Speed	200 nm/min
Baseline Correction	None
Shutter Control	Manual
Accumulations	16

