TITLE	
DATA TYPE	
ORIGIN	JASCO
OWNER	
DATE	16/11/10
TIME	10:39:55
SPECTROMETER/DATA SYSTEM	
LOCALE	2057
XUNITS	Temperature[C]
YUNITS	CD [mdeg]
Y2UNITS	HT [V]
FIRSTX	    2.0000
LASTX	   61.9000
NPOINTS	     300
XYDATA
2.0000	-6.95947	317.456
2.2600	-7.38453	317.459
2.4700	-6.99003	317.5
2.6500	-7.37023	317.455
2.8600	-7.20833	317.466
3.0500	-6.81701	317.471
3.2300	-7.22571	317.485
3.4700	-6.98814	317.469
3.6400	-7.22567	317.464
3.8500	-7.23572	317.47
4.0700	-7.43829	317.473
4.2600	-7.14018	317.456
4.4500	-6.99999	317.499
4.6400	-6.82615	317.449
4.8100	-7.42327	317.458
5.0500	-6.54823	317.477
5.2400	-6.70482	317.485
5.4600	-7.06327	317.443
5.6400	-6.46104	317.501
5.8200	-6.87483	317.499
6.0300	-6.56713	317.497
6.2400	-6.95269	317.475
6.4300	-6.4457	317.459
6.6400	-6.86819	317.466
6.8200	-6.40021	317.468
7.0400	-6.78775	317.48
7.2300	-7.09173	317.461
7.4400	-6.93511	317.478
7.6400	-7.21821	317.455
7.8300	-6.96169	317.494
8.0400	-6.5936	317.481
8.2200	-6.80092	317.502
8.4600	-6.57163	317.484
8.6600	-6.68915	317.492
8.8500	-6.5792	317.49
9.0600	-7.15244	317.468
9.2400	-6.70653	317.494
9.5300	-6.64903	317.506
9.6800	-6.84579	317.451
9.9300	-6.77093	317.46
10.0800	-7.05234	317.484
10.2400	-6.6734	317.459
10.4300	-7.18965	317.428
10.6300	-6.50977	317.454
10.8300	-6.56014	317.469
11.0400	-6.33849	317.412
11.2400	-6.95821	317.456
11.4600	-6.82056	317.459
11.6700	-6.43799	317.418
11.8600	-6.10564	317.438
12.0500	-6.86638	317.428
12.2400	-6.95457	317.415
12.4300	-6.61579	317.411
12.6300	-7.04652	317.414
12.8300	-6.56418	317.423
13.0300	-6.30586	317.449
13.2500	-6.30134	317.434
13.4500	-6.21225	317.438
13.6700	-6.79006	317.436
13.8300	-6.4549	317.424
14.0500	-6.59956	317.415
14.2600	-6.06467	317.417
14.4600	-6.32043	317.42
14.6300	-6.72205	317.4
14.8600	-6.43831	317.394
15.0500	-6.64333	317.422
15.2600	-6.29681	317.444
15.4700	-6.74504	317.403
15.6600	-6.37405	317.414
15.8300	-6.55556	317.428
16.0400	-6.31142	317.44
16.2800	-6.07273	317.405
16.4300	-6.62284	317.388
16.6200	-6.78145	317.441
16.8500	-6.24365	317.444
17.0800	-6.17623	317.397
17.3000	-6.40887	317.452
17.4400	-6.40814	317.445
17.6200	-6.18853	317.481
17.8600	-6.38282	317.447
18.0800	-6.16483	317.485
18.2600	-6.13525	317.495
18.4200	-5.93694	317.489
18.6300	-6.42276	317.461
18.8400	-6.15058	317.454
19.0500	-6.44498	317.481
19.2500	-6.21892	317.485
19.4500	-6.02444	317.48
19.6400	-6.47533	317.475
19.8300	-6.44073	317.462
20.0500	-6.20299	317.491
20.2400	-6.49924	317.463
20.4600	-6.0935	317.479
20.6700	-6.0254	317.452
20.8400	-6.37684	317.446
21.0300	-6.59485	317.504
21.2500	-6.17457	317.457
21.4500	-5.97725	317.488
21.6600	-6.03695	317.438
21.8400	-5.89823	317.471
22.0200	-5.89679	317.462
22.2600	-5.48518	317.465
22.4600	-5.40876	317.478
22.6400	-5.74105	317.498
22.8300	-6.22584	317.444
23.0400	-6.08981	317.5
23.2700	-5.81293	317.49
23.4300	-5.76797	317.445
23.6400	-6.1025	317.479
23.8600	-5.82975	317.453
24.0600	-5.72451	317.454
24.2300	-5.54945	317.469
24.4500	-5.42692	317.445
24.6300	-5.77913	317.481
24.8800	-5.59734	317.491
25.0700	-5.40654	317.482
25.2300	-5.60995	317.466
25.4400	-5.30385	317.477
25.6800	-5.74541	317.535
25.8400	-5.90876	317.531
26.0400	-5.7075	317.519
26.2300	-5.97563	317.476
26.4400	-5.77665	317.511
26.6600	-5.51819	317.522
26.8400	-5.78015	317.499
27.0200	-6.05215	317.501
27.2500	-5.7623	317.528
27.4700	-5.64146	317.506
27.6700	-5.56144	317.504
27.8400	-5.6033	317.546
28.0400	-5.6012	317.505
28.2700	-5.28234	317.521
28.4800	-5.18848	317.519
28.6400	-5.23362	317.537
28.8400	-5.77279	317.531
29.0500	-5.2934	317.534
29.2400	-5.0254	317.532
29.4400	-5.0791	317.527
29.6300	-5.41725	317.556
29.8300	-4.88985	317.549
30.0800	-5.11002	317.556
30.2300	-5.20013	317.53
30.4400	-5.41704	317.549
30.6400	-5.12286	317.556
30.8700	-4.83622	317.573
31.0400	-5.02588	317.572
31.2500	-4.78859	317.584
31.4400	-4.97675	317.585
31.6400	-5.04218	317.55
31.8600	-4.97429	317.576
32.0400	-5.03654	317.57
32.2400	-4.9898	317.59
32.4500	-5.46566	317.549
32.6700	-5.00563	317.581
32.8700	-4.22781	317.637
33.0500	-4.97525	317.564
33.2200	-4.67247	317.568
33.4800	-4.629	317.578
33.6300	-4.6396	317.569
33.8400	-4.92875	317.559
34.0500	-5.33838	317.569
34.2500	-4.90462	317.567
34.4700	-4.58536	317.614
34.6500	-5.05494	317.578
34.8400	-4.9497	317.555
35.0400	-4.62283	317.614
35.2800	-4.55616	317.607
35.4300	-4.81911	317.575
35.6400	-4.57697	317.621
35.8300	-4.0495	317.659
36.0500	-4.45886	317.609
36.2700	-4.70619	317.585
36.4300	-4.46864	317.599
36.6300	-4.68369	317.601
36.8500	-5.23706	317.61
37.0300	-4.41347	317.637
37.2400	-4.46756	317.66
37.4300	-4.61762	317.642
37.6400	-4.4915	317.631
37.8600	-4.77333	317.633
38.0500	-4.48944	317.618
38.2600	-4.69976	317.585
38.4400	-4.95033	317.597
38.6800	-4.01526	317.665
38.8300	-4.77946	317.607
39.0600	-4.77306	317.624
39.2400	-4.80621	317.622
39.4400	-4.06715	317.673
39.6700	-4.1467	317.663
39.8500	-4.33298	317.648
40.0500	-4.78792	317.617
40.2200	-4.64191	317.657
40.4800	-4.22387	317.673
40.6300	-4.37926	317.675
40.8500	-4.26967	317.701
41.0500	-4.48951	317.687
41.2600	-4.68631	317.643
41.4500	-4.43116	317.665
41.6400	-4.48456	317.67
41.8400	-4.09159	317.681
42.0400	-4.60293	317.645
42.2800	-4.77387	317.62
42.4300	-4.36427	317.664
42.6300	-4.00377	317.642
42.8200	-4.44382	317.639
43.0800	-4.60709	317.676
43.2400	-4.40615	317.685
43.4300	-4.50515	317.713
43.6500	-3.83991	317.679
43.8500	-4.22202	317.685
44.0600	-4.36706	317.69
44.2500	-4.45153	317.676
44.4200	-4.23447	317.653
44.6700	-4.32028	317.706
44.8700	-4.58931	317.68
45.0500	-4.3569	317.682
45.2300	-4.23191	317.669
45.4700	-4.41358	317.666
45.6500	-4.37623	317.693
45.8700	-4.63462	317.655
46.0200	-4.3747	317.699
46.2600	-4.09933	317.737
46.4800	-4.03921	317.71
46.6800	-4.51207	317.709
46.8300	-3.93701	317.735
47.0100	-4.89339	317.664
47.2500	-4.16099	317.763
47.5000	-4.04671	317.726
47.6800	-4.41656	317.722
47.8300	-3.87423	317.717
48.0100	-4.33016	317.722
48.2900	-4.66268	317.729
48.4800	-4.28578	317.769
48.6600	-4.20548	317.738
48.8400	-4.14864	317.763
49.0600	-3.57192	317.781
49.2600	-3.95351	317.741
49.4600	-4.00484	317.776
49.6300	-4.29315	317.74
49.8300	-4.10967	317.782
50.0700	-3.52779	317.784
50.2600	-4.65608	317.767
50.4600	-4.5514	317.746
50.6400	-3.71884	317.807
50.8300	-4.55732	317.767
51.0400	-3.89274	317.782
51.2500	-4.1867	317.786
51.4300	-4.45244	317.771
51.6500	-4.12382	317.781
51.8500	-4.36835	317.806
52.0700	-4.05646	317.818
52.2800	-3.94985	317.788
52.4500	-3.82036	317.839
52.6200	-3.8235	317.833
52.8500	-3.73215	317.822
53.0900	-4.0719	317.821
53.2500	-4.29726	317.764
53.4500	-4.06544	317.803
53.6500	-3.82215	317.803
53.8400	-4.35976	317.791
54.0400	-4.1398	317.797
54.2300	-3.92964	317.819
54.4500	-4.05837	317.846
54.6500	-3.99715	317.839
54.8300	-4.28995	317.817
55.0400	-3.7548	317.857
55.2500	-4.03586	317.865
55.4700	-4.00952	317.839
55.6400	-3.98926	317.811
55.8100	-4.09073	317.903
56.0600	-4.37675	317.888
56.3000	-3.87491	317.898
56.4900	-3.70002	317.935
56.6400	-4.25593	317.898
56.8500	-3.98514	317.93
57.0800	-3.87878	317.905
57.2900	-3.83973	317.923
57.5000	-3.96966	317.903
57.6600	-4.18034	317.908
57.8500	-4.17069	317.979
58.1200	-4.04901	317.968
58.2800	-4.09009	317.954
58.5200	-3.69038	317.992
58.6600	-4.23249	317.918
58.8300	-3.67946	317.97
59.1400	-4.02422	317.977
59.3200	-3.89984	317.976
59.4800	-4.39431	317.976
59.7100	-3.68787	318.041
59.8800	-4.25962	318.02
60.1000	-4.42252	318.002
60.3000	-4.23644	317.983
60.6100	-4.18991	318.018
60.7900	-4.0558	318.024
60.9100	-4.10471	318.029
61.1700	-4.19242	318.006
61.3400	-4.36346	318.047
61.5400	-4.07237	318.012
61.7200	-3.79746	318.053
61.9000	-4.24747	318.086

##### Extended Information
[Comments]
Sample name
Comment
User
Division
Company	Francis Crick Institute

[Detailed Information]
Creation date	10/11/2016 11:39

Data array type	Non-linear data array * 2
Horizontal axis	Temperature [C]
Vertical axis(1)	CD [mdeg]
Vertical axis(2)	HT [V]
Start	2 C
End	61.9 C
Data points	300     

[Measurement Information]
Instrument name	J-815
Model name	J-815
Serial No.	B059861168

Accessory	CDF-426S
Accessory S/N	C016161183
  Control sonsor	Holder
  Monitor sensor	Holder
  Start Mode	Keep target temperature +/-0.10 deg C while 5 seconds
  Cell length	10 mm

Measurement date	10/11/2016 11:39

Photometric mode	CD, HT
Sensitivity	Standard
D.I.T.	1 sec
Bandwidth	2.00 nm
Monitor wavelength	222 nm
Baseline correction	None
Shutter control	Manual
CD detector	PMT
PMT voltage	Auto


